# wl [um], spectra (phi=0), spectra (phi=90), spectra (phi=180), spectra (phi=270)
5.500000000000000000e+03 5.719531826652033869e-08 7.150436653447808795e-08 9.380191178579320951e-08 7.160125608521414420e-08
7.500000000000000000e+02 7.259420794539632143e-06 8.939738279969177410e-06 1.152035625171080598e-05 8.919284826493894855e-06
4.166666666500000247e+02 6.019180087721026656e-05 7.238138289155254021e-05 9.068126350459304510e-05 7.185759091919775615e-05
2.916666666500000247e+02 2.406242132928594949e-04 2.808825023212413907e-04 3.391403414074067217e-04 2.772853454682354521e-04
2.250000000000000000e+02 6.769163920850858156e-04 7.671433412839356522e-04 8.897525974529960947e-04 7.529186882088248793e-04
1.833333333500000037e+02 1.531295285041814379e-03 1.694123536791059372e-03 1.894408315542312751e-03 1.653979897689015653e-03
1.547619047999999964e+02 2.980024943670352752e-03 3.241250440733810766e-03 3.522972418707466351e-03 3.151876127710295534e-03
1.339285714499999926e+02 5.204580456184482867e-03 5.601592371045148455e-03 5.971853341894926490e-03 5.431844383874811187e-03
1.180555555500000082e+02 8.397820209148662216e-03 8.994015213917766483e-03 9.479727737330462603e-03 8.700538865948048359e-03
1.055555555500000082e+02 1.276701605529471407e-02 1.367096817439670230e-02 1.433458738305814183e-02 1.318891394117386456e-02
9.545454545499998744e+01 1.852554052514567007e-02 1.990438091206143609e-02 2.085127605719148958e-02 1.913937167867595796e-02
8.712121211999999559e+01 2.586662108272898969e-02 2.798541810278171518e-02 2.940674588086855321e-02 2.680230645137638909e-02
8.012820512499999381e+01 3.490999601863020718e-02 3.818828312475760350e-02 4.043721197272044654e-02 3.640499199239878581e-02
7.417582417500000247e+01 4.568028146298612480e-02 5.070839179522791673e-02 5.435071928457357870e-02 4.811332821550332040e-02
6.904761905000000866e+01 5.805640398368404342e-02 6.565159923153121579e-02 7.158074616148969727e-02 6.202321765584657004e-02
6.458333333499999185e+01 7.172847278129348969e-02 8.296698810219878262e-02 9.253732837637730635e-02 7.812495481208539538e-02
6.066176470499999596e+01 8.632145825129389216e-02 1.025259667445732742e-01 1.176255184061387737e-01 9.638491269229991498e-02
5.718954248500000404e+01 1.013863090564884883e-01 1.240742566532221647e-01 1.471418593148888787e-01 1.166984606820206799e-01
5.409356725499999641e+01 1.167615097588859813e-01 1.475466186043514760e-01 1.814124195363392700e-01 1.391339691027353997e-01
5.131578947500000254e+01 1.321643018260205693e-01 1.727548468736102294e-01 2.206738254940726895e-01 1.636573243389665699e-01
4.880952381000000173e+01 1.476320642653611015e-01 1.996767024391821743e-01 2.651502334620401413e-01 1.904126031805404295e-01
4.653679653500000057e+01 1.637839007917576972e-01 2.286935624825589819e-01 3.150531812282545974e-01 2.198373038940408530e-01
4.446640315999999871e+01 1.809946210276414391e-01 2.601760543850916707e-01 3.703778743117832062e-01 2.520879528621838839e-01
4.257246376999999882e+01 1.998125941920856075e-01 2.947778668036484251e-01 4.313558019732395277e-01 2.874810844338073768e-01
4.083333333499999895e+01 2.200473263057696749e-01 3.324287060427266738e-01 4.979722364440681281e-01 3.258819189104886771e-01
3.923076922999999994e+01 2.416473425593617108e-01 3.732339420439278466e-01 5.706002278156627749e-01 3.673963854906295290e-01
3.774928775000000059e+01 2.645113463311764002e-01 4.171928532622114494e-01 6.494217306560366998e-01 4.120331149102079427e-01
3.637566137499999996e+01 2.883253608127628320e-01 4.640592628431995381e-01 7.343642513660607607e-01 4.595862232784658774e-01
3.509852216500000566e+01 3.130809577582148173e-01 5.139125519157935473e-01 8.257129512153945639e-01 5.101487474065482530e-01
3.390804597500000739e+01 3.386984126260423333e-01 5.667689487426715855e-01 9.237152951053210215e-01 5.637582616598513230e-01
3.279569892499999639e+01 3.648423151795766040e-01 6.222373952129939267e-01 1.027927036750104106e+00 6.200524440059076436e-01
3.175403225999999890e+01 3.916320866177450677e-01 6.806534856338668504e-01 1.139110147916660543e+00 6.793647515372946977e-01
3.077651515000000160e+01 4.188390443816068509e-01 7.415644799547104205e-01 1.256436133779044395e+00 7.412463643280166048e-01
2.985739750500000156e+01 4.463922944530840375e-01 8.052317553697708741e-01 1.380855653302835773e+00 8.059912377316641452e-01
2.899159663999999736e+01 4.741702531465987192e-01 8.712780712209706735e-01 1.511534535216852548e+00 8.732119712664976330e-01
2.817460317500000144e+01 5.020855564534694171e-01 9.397052019775157250e-01 1.648662901875834752e+00 9.429064237330285758e-01
2.740240240500000013e+01 5.300835631443139295e-01 1.010577775267929690e+00 1.792606655149469264e+00 1.015149328759423764e+00
2.667140824999999893e+01 5.579933074181686603e-01 1.083500065001845813e+00 1.942550112920459426e+00 1.089544950953702074e+00
2.597840755500000398e+01 5.856527913695623866e-01 1.158553450120359596e+00 2.099038714146763684e+00 1.166153986161557743e+00
2.532051282000000114e+01 6.131950919425814828e-01 1.235501251815523283e+00 2.261285599182639938e+00 1.244775833899173456e+00
2.469512195000000077e+01 6.403910984898911751e-01 1.314361124033027073e+00 2.429810878745929603e+00 1.325424357073202941e+00
2.409988385500000163e+01 6.671339970549976517e-01 1.394779706268355568e+00 2.603787611923921386e+00 1.407730865462314851e+00
2.353266887999999923e+01 6.933651835753126269e-01 1.476892421264072386e+00 2.783744032810306024e+00 1.491819458898376194e+00
2.299154333999999977e+01 7.176740474992936436e-01 1.559864360415426532e+00 2.969283676937730210e+00 1.576711610933006158e+00
2.247474747500000092e+01 7.430858985930828275e-01 1.644791347214624055e+00 3.159625637393886688e+00 1.663870979237135561e+00
2.198067632500000101e+01 7.677711853518709439e-01 1.730885605376280667e+00 3.354929735470656205e+00 1.752261246803139993e+00
2.150786308500000032e+01 7.916608578862307510e-01 1.818065924034127923e+00 3.555166938975476310e+00 1.841805138081531235e+00
2.105496453499999987e+01 8.147252080966834731e-01 1.906135655775964111e+00 3.759767033261987468e+00 1.932256991058592277e+00
2.062074830000000247e+01 8.357182567149847863e-01 1.993843273010367012e+00 3.969253221241806351e+00 2.023256147373661662e+00
2.020408163500000143e+01 8.567363558948538627e-01 2.083094808729529568e+00 4.182514889505677402e+00 2.115216165247346680e+00
1.980392156999999997e+01 8.778019700384436241e-01 2.173971979849823821e+00 4.398489387737550160e+00 2.207835464271209247e+00
1.941930618499999994e+01 8.986634417858393453e-01 2.265916052951137072e+00 4.617417396791765327e+00 2.301056260905049999e+00
1.904934688000000165e+01 9.212450783702677004e-01 2.360363005906979339e+00 4.837563177496376987e+00 2.395157960917561280e+00
1.869322152499999845e+01 9.411550922544362763e-01 2.453219387547254993e+00 5.061771520057689600e+00 2.489109942572396150e+00
1.835016835000000057e+01 9.999063715108603700e-01 2.582372511093812495e+00 5.257091753274242940e+00 2.590457377291983665e+00
1.801948052000000189e+01 9.840268088351845632e-01 2.646959130205963628e+00 5.510662022559886353e+00 2.677130225429469323e+00
1.770050125499999893e+01 1.044944790228534481e+00 2.784736114997103495e+00 5.702649501488197714e+00 2.776942487808036653e+00
1.739261948000000046e+01 1.230675323641811536e+00 3.015981797636115846e+00 5.800486257635896870e+00 2.903414298780514269e+00
1.709526592499999964e+01 1.630357721630177226e+00 3.350113378142899556e+00 5.699804131827817422e+00 3.071366179052215095e+00
1.680790960499999898e+01 2.277124829310838372e+00 3.685656921876705017e+00 5.194793013778165047e+00 3.239332035292433520e+00
1.653005464499999988e+01 2.534959849521032815e+00 3.842356448180090478e+00 5.157948144320718242e+00 3.369651590826040266e+00
1.626123743999999860e+01 2.759483810483594368e+00 3.673003915583607171e+00 4.345505192870636968e+00 3.218735197636392709e+00
1.600102406499999930e+01 3.037602890740585870e+00 3.818520861414969048e+00 4.303344282336354354e+00 3.377657921521824758e+00
1.574900793500000162e+01 2.688636906661121984e+00 2.787718495475676406e+00 2.806275128478288305e+00 2.709688811921182161e+00
1.550480768999999981e+01 1.966517262517938569e+00 1.840188772523887906e+00 1.839284791718092116e+00 1.954555635523299362e+00
1.526806526500000061e+01 1.528060777339585341e+00 1.311056761711611340e+00 1.297420172956306850e+00 1.498701315569660464e+00
1.503844413999999929e+01 1.319590952869680756e+00 1.149226014672269036e+00 1.153496449960413228e+00 1.304714663962208032e+00
1.481562774000000005e+01 1.468773516896025422e+00 1.239558974327787499e+00 1.224936049847672237e+00 1.437427115928155752e+00
1.459931798500000077e+01 1.746617368137179716e+00 1.535734344647175176e+00 1.525337358625991513e+00 1.720006433342995411e+00
1.438923395499999991e+01 2.500057490180315423e+00 2.458315612307066189e+00 2.464506066207653667e+00 2.500950431848285138e+00
1.418511066499999984e+01 3.467843992711181933e+00 3.895969816542522501e+00 3.969851879442458653e+00 3.552488049880002219e+00
1.398669796500000118e+01 3.617826054008424386e+00 4.713582082409272012e+00 5.265004726726750128e+00 4.029479316983862525e+00
1.379375951499999964e+01 3.045059040437699149e+00 4.771804499560717616e+00 6.441926347931849151e+00 4.091125545787664741e+00
1.360607182500000079e+01 3.196957034141627574e+00 5.146055231551825315e+00 7.045291630926411308e+00 4.378181253093307745e+00
1.342342342000000066e+01 2.876177091458075985e+00 5.115413524832517211e+00 7.675025452157375305e+00 4.425072986799339247e+00
1.324561403500000090e+01 2.011125914290508465e+00 4.952875847485485927e+00 9.127540781355895305e+00 4.455331128724629330e+00
1.307245386499999995e+01 1.411777314712176823e+00 4.639033565636846212e+00 9.974643457913963118e+00 4.443779278503283692e+00
1.290376290500000067e+01 1.128128220887346655e+00 4.468853089097967413e+00 1.047848863053444113e+01 4.477756093343190358e+00
1.273937033500000027e+01 1.038327244669619676e+00 4.442883191225812212e+00 1.078363309955403615e+01 4.536342173884787776e+00
1.257911392499999970e+01 1.198790820057517914e+00 4.632666090081304588e+00 1.079894648033559612e+01 4.614597267675629944e+00
1.242283950499999889e+01 1.033760769382847666e+00 4.562111136509968468e+00 1.117351630356436942e+01 4.657866891199025083e+00
1.227040047999999928e+01 9.919860241094645703e-01 4.590230543815307485e+00 1.140217221753385424e+01 4.710358880842148821e+00
1.212165736000000038e+01 9.600369219962573419e-01 4.622710671081454947e+00 1.161579272012430053e+01 4.762198425087002640e+00
1.197647733499999845e+01 9.349531953536324158e-01 4.656516558353477109e+00 1.182030989263356346e+01 4.813867964525023524e+00
1.183473388999999898e+01 9.214514352271202524e-01 4.700437695100916358e+00 1.200476984702407002e+01 4.863691861061032462e+00
1.169630642999999992e+01 9.083455057672723543e-01 4.742953225783955951e+00 1.218319164920917608e+01 4.911267287944094839e+00
1.156107992500000137e+01 8.965831167931367363e-01 4.785161051530447018e+00 1.235418809166752396e+01 4.956566282984164573e+00
1.142894461499999892e+01 8.820668864921115127e-01 4.822470983189020011e+00 1.252380337664766863e+01 4.999721307512549728e+00
1.129979570999999972e+01 8.689855568376834150e-01 4.859510742301990760e+00 1.268562111294149730e+01 5.040557622487467526e+00
1.117353308499999898e+01 8.566409802244943084e-01 4.895333262329225832e+00 1.284063052429516461e+01 5.079107299660968522e+00
1.105006105000000005e+01 8.455989123764305893e-01 4.930762835338247108e+00 1.298781652972749612e+01 5.115291693559703923e+00
1.092928810499999948e+01 8.350801867369143094e-01 4.964648921089388267e+00 1.312830527584522855e+01 5.149157854945058510e+00
1.081112669500000045e+01 8.301658656316189822e-01 5.001456811770989219e+00 1.325558026639796338e+01 5.180937966736394173e+00
1.069549302000000068e+01 8.455971032710952739e-01 5.054808835774017517e+00 1.334823228648593307e+01 5.210526521314388759e+00
1.058230683000000028e+01 8.760161907910979373e-01 5.115220022282871426e+00 1.341587186533899079e+01 5.238910391895181817e+00
1.047149122999999982e+01 8.315060667337720313e-01 5.107349927195436123e+00 1.358310739105001019e+01 5.264501691089903623e+00
1.036297250999999875e+01 8.092963090754939914e-01 5.119259131663352669e+00 1.371167547138197662e+01 5.287414886273619885e+00
1.025667998999999853e+01 8.572906689168376948e-01 5.193015982384705964e+00 1.372924501357034188e+01 5.306686512188961480e+00
1.015254586500000045e+01 7.702855343648915554e-01 5.149193260265803040e+00 1.393571499700517080e+01 5.323915226820105318e+00
1.005050504999999994e+01 7.135678006307494270e-01 5.121315000300385556e+00 1.410246205605963965e+01 5.342355522820001035e+00
9.950495049499998856e+00 6.958638194421977730e-01 5.128566412802465280e+00 1.420323969411822951e+01 5.357225669575371718e+00
9.852455834000000578e+00 6.840047544222798148e-01 5.140625002855846226e+00 1.428678727795875680e+01 5.369032316199850996e+00
9.756329716499999805e+00 6.845760620529894869e-01 5.162586747298781198e+00 1.434389774664186668e+01 5.377877795098709335e+00
9.662061239499999843e+00 7.079192359527736178e-01 5.201221105790426513e+00 1.435967050165607439e+01 5.383903783127610865e+00
9.569597069500000330e+00 7.441659497541390778e-01 5.243950880810614557e+00 1.435119579873751938e+01 5.388255198606342056e+00
9.478885894000001144e+00 7.549219659067719634e-01 5.261898660518195214e+00 1.437580237267717997e+01 5.391285539751947908e+00
9.389878328500000038e+00 6.732962470958449019e-01 5.205651177713813027e+00 1.454500829883691004e+01 5.396711531485605562e+00
9.302526825999999360e+00 7.820622637244341036e-01 5.302573708169543210e+00 1.439207336028334971e+01 5.388620812149579997e+00
9.216785592999999110e+00 6.977926428767651235e-01 5.253072703869394289e+00 1.454495249305423776e+01 5.386908563019226825e+00
9.132610508999999155e+00 5.892096518205522937e-01 5.162725840195595772e+00 1.475105753029906097e+01 5.391227790162933964e+00
9.049959050000000005e+00 5.530046099343828292e-01 5.130580707731153822e+00 1.483596673310793967e+01 5.390269287682243338e+00
8.968790219000000619e+00 5.387258126760893218e-01 5.119887126439878422e+00 1.487037355929029658e+01 5.383490070055117371e+00
8.889064475499999674e+00 5.254359844742430008e-01 5.108626975027823036e+00 1.489713440909779330e+01 5.374680354962431572e+00
8.810743673499999318e+00 5.123411289726854667e-01 5.095774224745089676e+00 1.491847838365951873e+01 5.364155274798591222e+00
8.733790999500000041e+00 4.994403964986747213e-01 5.081358757981562668e+00 1.493450062306459003e+01 5.351957714322928439e+00
8.658170914500001203e+00 4.867388930049237894e-01 5.065418277585655993e+00 1.494526944724723094e+01 5.338125184481383734e+00
8.583849101000000203e+00 4.742409257799600764e-01 5.047992333076588345e+00 1.495086326597274962e+01 5.322697562351668132e+00
8.510792409000000447e+00 4.619528487030023500e-01 5.029122920740884517e+00 1.495135282524930709e+01 5.305713140400593275e+00
8.438968808000000266e+00 4.498769645593663213e-01 5.008851261695911994e+00 1.494683327134085360e+01 5.287215305502419582e+00
8.368347338999999607e+00 4.380226511654229382e-01 4.987222343278024717e+00 1.493737151283338882e+01 5.267241768951413938e+00
8.298898071500000029e+00 4.264259353279017950e-01 4.964304404714192209e+00 1.492299237582407301e+01 5.245829246205732765e+00
8.230592060500001139e+00 4.152000708050670452e-01 4.940208401868488863e+00 1.490357843342008515e+01 5.223006733205886043e+00
8.163401306000000801e+00 4.048463130206501615e-01 4.915226296270551742e+00 1.487823600568963123e+01 5.198748855344432762e+00
8.097298715000000868e+00 3.962411971940751898e-01 4.889315434071574096e+00 1.484457104384276960e+01 5.172764845011093016e+00
8.032258064499998795e+00 3.897132380345607605e-01 4.861821183466124019e+00 1.480001011868626826e+01 5.144452489074368806e+00
7.968253968500000006e+00 3.763760706649225685e-01 4.831916724794663054e+00 1.476920733136398844e+01 5.117091267732752691e+00
7.905261842499999858e+00 3.669621206845926631e-01 4.801793497842433034e+00 1.472482196169565150e+01 5.087459356116311504e+00
7.843257874000000740e+00 3.585417660425682662e-01 4.771538667308270476e+00 1.467577613518099788e+01 5.056876133131360973e+00
7.782218991999999780e+00 3.445435861555552481e-01 4.739184901570376418e+00 1.463809427387303685e+01 5.027127527365847115e+00
7.722122837999999767e+00 3.323529463546357476e-01 4.705325712338212618e+00 1.459067118300026600e+01 4.995325165838959691e+00
7.662947738999999814e+00 3.222684154042119165e-01 4.671040264480851967e+00 1.453473471006052620e+01 4.961976931725158302e+00
7.604672681000000267e+00 3.130167080824632353e-01 4.636159696482903492e+00 1.447358476063937793e+01 4.927489547287974503e+00
7.547277283999999753e+00 3.041834383161982069e-01 4.600631484635168356e+00 1.440861942504444748e+01 4.892097489504396712e+00
7.490741779500000419e+00 2.963778236500386742e-01 4.564615822549507484e+00 1.433790134984095133e+01 4.855513464404471513e+00
7.435046986999999774e+00 2.913164306638827972e-01 4.528178277876330426e+00 1.425649094404861117e+01 4.817066299158654807e+00
7.380174291499999484e+00 2.857683338716974220e-01 4.489806464548533604e+00 1.417134095042938213e+01 4.777367924443024272e+00
7.326105624500000246e+00 2.735400844342254500e-01 4.450615304636652780e+00 1.410496021937861677e+01 4.740247970934208688e+00
7.272823442500000013e+00 2.698232912183496368e-01 4.411684615790056441e+00 1.401003271372698933e+01 4.698622086888296856e+00
7.220310708000000410e+00 2.605778894346053587e-01 4.372400073598519121e+00 1.393201510328800730e+01 4.659572694233419909e+00
7.168550873500000087e+00 2.494330834467865243e-01 4.331286187375942731e+00 1.385482009424302419e+01 4.619973916750202747e+00
7.117527862499999358e+00 2.404930963273308464e-01 4.290189671448933595e+00 1.377066472350738735e+01 4.579455528404700715e+00
7.067226051500000494e+00 2.327081019112606508e-01 4.247729474067695854e+00 1.367745825396871950e+01 4.536847028546191041e+00
7.017630257000000427e+00 2.255812442253922190e-01 4.206091030938264197e+00 1.358434800120936714e+01 4.494719646123629175e+00
6.968725718499999999e+00 2.187540535064070035e-01 4.163242118259871560e+00 1.348544116780522373e+01 4.451097509514574391e+00
6.920498084000000105e+00 2.121738925371889073e-01 4.120912814875282493e+00 1.338719699047893386e+01 4.407943269552679233e+00
6.872933396000000528e+00 2.057117624096054254e-01 4.076290102509370961e+00 1.328011363989451610e+01 4.362249927167518138e+00
6.826018078000000600e+00 1.995131250803015288e-01 4.033895866192354518e+00 1.317969355738551762e+01 4.318910891536434704e+00
6.779738922499999987e+00 1.934330059303723537e-01 3.989319587034703130e+00 1.307073586568270862e+01 4.273161574715342859e+00
6.734083076499999265e+00 1.875601451664670460e-01 3.945859852474824958e+00 1.296469549174119251e+01 4.228566562513845106e+00
6.689038031499999981e+00 1.818012270299484978e-01 3.900741763075511237e+00 1.285204904809212145e+01 4.182123608513574453e+00
6.644591611500000106e+00 1.761934660470839686e-01 3.855169141545571332e+00 1.273684912573744654e+01 4.135135810204640272e+00
6.600731961999999342e+00 1.708483498102140175e-01 3.811825178465668706e+00 1.262814421591014913e+01 4.090509732273081234e+00
6.557447540000000075e+00 1.655470863240381119e-01 3.765552571155320383e+00 1.250857257016217083e+01 4.042656389537599537e+00
6.514727103000000241e+00 1.604366537590687924e-01 3.720706638895003415e+00 1.239303472536062500e+01 3.996294545392915953e+00
6.472559698499999570e+00 1.554733287443900158e-01 3.675190209980015776e+00 1.227405498581177845e+01 3.949154259992178062e+00
6.430934656499999846e+00 1.506431580053257946e-01 3.629432333959373036e+00 1.215332809845186191e+01 3.901698297961078588e+00
6.389841581000000659e+00 1.459914846873530403e-01 3.584816861181531422e+00 1.203561589030720924e+01 3.855427965388130485e+00
6.349270338000000180e+00 1.414741502483255753e-01 3.539975038489837189e+00 1.191611751315187107e+01 3.808860976968733603e+00
6.309211050000000043e+00 1.371203810335724083e-01 3.495715497162205310e+00 1.179760003773638211e+01 3.762874202545341440e+00
