# wl [um], spectra (phi=0), spectra (phi=90), spectra (phi=180), spectra (phi=270)
5.500000000000000000e+03 5.929834554802628697e-08 7.254799380711458396e-08 9.587941774275213871e-08 7.446464816444236001e-08
7.500000000000000000e+02 7.512008110406568420e-06 9.045962623622703813e-06 1.178215052780320432e-05 9.289973532942996816e-06
4.166666666500000247e+02 6.210504666305104345e-05 7.298979470962975685e-05 9.279560106926855781e-05 7.496439543296684366e-05
2.916666666500000247e+02 2.475762799189201854e-04 2.822983284142714178e-04 3.473229846882151957e-04 2.897623288737286463e-04
2.250000000000000000e+02 6.957424064671492801e-04 7.690935050057146451e-04 9.121278547397643080e-04 7.887786955395940892e-04
1.833333333500000037e+02 1.575853773214955927e-03 1.696460538557227138e-03 1.944073784298805093e-03 1.738689862007460714e-03
1.547619047999999964e+02 3.074917259652941871e-03 3.246074963265353167e-03 3.618768033226066067e-03 3.325000604418774843e-03
1.339285714499999926e+02 5.386286082181666532e-03 5.613629818304874571e-03 6.138633455054849815e-03 5.748202455491261027e-03
1.180555555500000082e+02 8.715302412002891297e-03 9.016220374192814024e-03 9.748700424312840840e-03 9.235303648052927555e-03
1.055555555500000082e+02 1.328230930382148615e-02 1.369560892336343927e-02 1.474362311237808164e-02 1.404705868306264059e-02
9.545454545499998744e+01 1.931685111942423733e-02 1.990695347120497241e-02 2.144551920792123201e-02 2.046526383473021987e-02
8.712121211999999559e+01 2.702967620965645093e-02 2.791187506568101190e-02 3.023861319679432488e-02 2.879353439006542004e-02
8.012820512499999381e+01 3.655996435224340840e-02 3.794474158385563456e-02 4.156661811666614165e-02 3.932441699003679653e-02
7.417582417500000247e+01 4.795589946523541591e-02 5.017721976404605766e-02 5.584910834008503799e-02 5.228093693111555279e-02
6.904761905000000866e+01 6.112297899896895065e-02 6.470585947580785591e-02 7.353634843099583762e-02 6.780956268163872147e-02
6.458333333499999185e+01 7.577179874406531068e-02 8.150912671301820123e-02 9.505952271892276206e-02 8.591098360283051794e-02
6.066176470499999596e+01 9.153837697198667633e-02 1.005364503641524437e-01 1.208582311691206307e-01 1.065161981349330433e-01
5.718954248500000404e+01 1.079557319270527393e-01 1.216480582090149754e-01 1.512560901248874712e-01 1.294136062242845220e-01
5.409356725499999641e+01 1.248439647071103720e-01 1.448946148015709257e-01 1.866168298187964036e-01 1.545716712257893255e-01
5.131578947500000254e+01 1.418786297586106804e-01 1.702048167022028879e-01 2.272051482672211020e-01 1.818207592161883990e-01
4.880952381000000173e+01 1.589929598397777366e-01 1.976707529691730247e-01 2.732746784976565202e-01 2.111101101833387228e-01
4.653679653500000057e+01 1.767366270889674518e-01 2.277298645041184733e-01 3.250707860056791243e-01 2.427817806011636215e-01
4.446640315999999871e+01 1.955497020145553211e-01 2.606111565878347913e-01 3.825738935806014540e-01 2.771737706819356606e-01
4.257246376999999882e+01 2.161663570154408742e-01 2.967722193344208281e-01 4.460265718266163693e-01 3.149830894874802167e-01
4.083333333499999895e+01 2.384164866421180640e-01 3.360873699854181051e-01 5.154027190704641992e-01 3.561429148860175697e-01
3.923076922999999994e+01 2.622813706942493384e-01 3.786742757660636616e-01 5.911087627906648212e-01 4.008196647025534798e-01
3.774928775000000059e+01 2.876573055530524670e-01 4.245383816847608793e-01 6.733444078754051709e-01 4.490411347486509830e-01
3.637566137499999996e+01 3.142029408957272008e-01 4.734504250337466802e-01 7.620349831398928186e-01 5.005577327164902890e-01
3.509852216500000566e+01 3.419191329184428918e-01 5.255133721148064208e-01 8.574999973035651868e-01 5.554808092815013421e-01
3.390804597500000739e+01 3.707234486629860104e-01 5.807707147434065797e-01 9.600268620168106448e-01 6.138520976639811888e-01
3.279569892499999639e+01 4.002402870703981597e-01 6.388298476818473626e-01 1.069135980023526722e+00 6.752369477814380572e-01
3.175403225999999890e+01 4.306176118434165700e-01 7.000583635388638593e-01 1.185674311524927083e+00 7.400443392900681872e-01
3.077651515000000160e+01 4.615797466238081848e-01 7.639400969961730459e-01 1.308648327999661909e+00 8.077083864720925321e-01
2.985739750500000156e+01 4.930772670699302140e-01 8.309070658939319287e-01 1.439425211558135187e+00 8.786911807515865869e-01
2.899159663999999736e+01 5.249704557733557708e-01 9.004541964551481259e-01 1.576818591516888635e+00 9.524581220731241915e-01
2.817460317500000144e+01 5.571511169131666552e-01 9.726152777306199537e-01 1.721154890671720228e+00 1.029047545193160218e+00
2.740240240500000013e+01 5.895706926772235068e-01 1.047483583829411646e+00 1.872851674476689876e+00 1.108561469972174418e+00
2.667140824999999893e+01 6.220430462689400253e-01 1.124641669820571011e+00 2.031023486034838843e+00 1.190557043626067735e+00
2.597840755500000398e+01 6.544352039752854289e-01 1.204171869688329455e+00 2.196241313553707108e+00 1.275156196302348777e+00
2.532051282000000114e+01 6.867976902383008397e-01 1.285860233152596566e+00 2.367777348163332185e+00 1.362068652765490162e+00
2.469512195000000077e+01 7.189561862301977468e-01 1.369731014819091319e+00 2.546108444757593681e+00 1.451367326975398164e+00
2.409988385500000163e+01 7.507680554794593508e-01 1.455415539935893898e+00 2.730418531736009236e+00 1.542643349747746973e+00
2.353266887999999923e+01 7.823142703974677037e-01 1.543093104979146535e+00 2.921200508225007653e+00 1.636193526371904294e+00
2.299154333999999977e+01 8.123605612518365326e-01 1.631830780401024139e+00 3.118071143410803270e+00 1.731232369748816335e+00
2.247474747500000092e+01 8.440119016521796524e-01 1.723134626168637329e+00 3.319845997841945451e+00 1.829015817109206132e+00
2.198067632500000101e+01 8.758864732522426699e-01 1.816132068997555749e+00 3.526643694376635718e+00 1.928985254499150814e+00
2.150786308500000032e+01 9.059860405683396456e-01 1.910133866191130680e+00 3.739586170991103131e+00 2.029609307508517979e+00
2.105496453499999987e+01 9.400503227292700270e-01 2.006714868753157521e+00 3.954519952725004561e+00 2.135000237037064874e+00
2.062074830000000247e+01 9.733173957660963271e-01 2.103816641452472602e+00 4.173100340925973484e+00 2.242499643994828595e+00
2.020408163500000143e+01 1.008828077455899752e+00 2.203267765765358099e+00 4.395664765661192241e+00 2.352530683476033779e+00
1.980392156999999997e+01 1.130971125336959426e+00 2.327742871183351436e+00 4.560556138130650972e+00 2.533783725804665377e+00
1.941930618499999994e+01 1.288075964405821283e+00 2.467964293111542418e+00 4.707514046939832220e+00 2.721581941403383276e+00
1.904934688000000165e+01 1.531248859999942535e+00 2.636973391314336279e+00 4.790303667596870874e+00 2.941488435187194384e+00
1.869322152499999845e+01 1.705138434356222144e+00 2.780618185639569973e+00 4.911698643698891864e+00 3.122558597445305839e+00
1.835016835000000057e+01 2.248670187825221323e+00 2.967257619039640915e+00 4.507253076161013006e+00 3.376977805691567358e+00
1.801948052000000189e+01 2.383871073883876424e+00 3.158474094564176937e+00 4.894202751913699245e+00 3.718980134190818632e+00
1.770050125499999893e+01 3.206979419554247812e+00 3.482213591082091053e+00 4.329212177626828861e+00 4.002147716832788582e+00
1.739261948000000046e+01 3.279489390100428725e+00 3.379645703891509534e+00 3.768972119605923599e+00 3.672552153559044630e+00
1.709526592499999964e+01 2.856811630527598567e+00 2.866942810860989344e+00 2.896156541087369085e+00 2.886195674913534681e+00
1.680790960499999898e+01 2.054558411281624419e+00 2.051758955978190802e+00 1.992555201805356724e+00 1.983706557940132731e+00
1.653005464499999988e+01 1.732949448366232215e+00 1.725810970757986063e+00 1.635623034848948221e+00 1.627388200325450729e+00
1.626123743999999860e+01 1.384105622083758425e+00 1.384791896280331613e+00 1.310759994914464821e+00 1.292595793201472665e+00
1.600102406499999930e+01 1.268679590910325672e+00 1.265189105121319546e+00 1.177791145097631276e+00 1.167317208306204668e+00
1.574900793500000162e+01 8.615888334574050011e-01 8.676017604178780651e-01 8.225085389020978521e-01 8.095002041423435823e-01
1.550480768999999981e+01 8.226091413304434941e-01 8.515186242654498860e-01 8.617379455501902319e-01 8.182170350683941606e-01
1.526806526500000061e+01 8.563595215904995506e-01 8.840174550541961551e-01 8.965588331447297277e-01 8.565425416338803277e-01
1.503844413999999929e+01 8.501944807090076051e-01 9.365435775589020517e-01 1.031483507184366655e+00 9.089537448354928495e-01
1.481562774000000005e+01 8.580714130879425472e-01 8.881068876289293090e-01 9.055499101467889833e-01 8.615787701751179695e-01
1.459931798500000077e+01 8.271668559684082211e-01 8.512396555958893218e-01 8.559146025704075234e-01 8.195405450310812023e-01
1.438923395499999991e+01 8.120433549545736929e-01 8.217583551184236557e-01 7.901692526556254315e-01 7.731987061157589158e-01
1.418511066499999984e+01 1.060599399378131746e+00 1.060341087943805993e+00 9.804321007452098113e-01 9.667846397035989581e-01
1.398669796500000118e+01 1.419416335120959882e+00 1.415794499910194348e+00 1.319766623763144908e+00 1.303110124145717474e+00
1.379375951499999964e+01 1.831045885477554425e+00 1.827619056568585698e+00 1.724699905890259899e+00 1.706130083633035088e+00
1.360607182500000079e+01 1.972940916625121499e+00 1.963660453652138260e+00 1.846859524853162737e+00 1.834850685918129498e+00
1.342342342000000066e+01 2.659382804730108685e+00 2.656589137718110116e+00 2.580400693609460117e+00 2.567883303675777551e+00
1.324561403500000090e+01 4.044942635755798044e+00 4.068921706189962961e+00 4.165877968272791776e+00 4.148193042229582517e+00
1.307245386499999995e+01 4.907438814563305662e+00 5.133736032143699113e+00 6.018325209431716338e+00 5.791207552195016817e+00
1.290376290500000067e+01 4.814138891422375721e+00 5.434692308241445780e+00 7.290808882669374213e+00 6.478581883840406341e+00
1.273937033500000027e+01 3.891648124539810905e+00 5.364065571499049057e+00 8.897838237544952733e+00 6.571791227121086543e+00
1.257911392499999970e+01 3.840438518564007531e+00 5.146015584063417414e+00 8.206062215584383424e+00 6.049672005638900174e+00
1.242283950499999889e+01 3.328034978943384292e+00 5.332318314983520047e+00 9.770485982185004303e+00 6.300312181288730606e+00
1.227040047999999928e+01 2.774277176559460933e+00 5.298915303955081590e+00 1.066189313323549293e+01 6.191772461632685243e+00
1.212165736000000038e+01 2.397333769795570557e+00 5.284660064430189763e+00 1.129207099226321631e+01 6.141729598913678423e+00
1.197647733499999845e+01 1.561226919088711806e+00 5.160092812565502562e+00 1.236965357630836948e+01 5.769022341526376607e+00
1.183473388999999898e+01 1.353224636754722043e+00 5.179712719195960879e+00 1.279180888166468399e+01 5.687763571964717713e+00
1.169630642999999992e+01 1.250091395464609567e+00 5.216208550674005018e+00 1.308718621311049723e+01 5.672187079696539236e+00
1.156107992500000137e+01 1.391669904249257073e+00 5.290460020066442226e+00 1.309826650946334503e+01 5.841647751065043970e+00
1.142894461499999892e+01 1.190760644275837166e+00 5.307389492756506399e+00 1.350361154848657108e+01 5.757570652978597714e+00
1.129979570999999972e+01 1.240913995614379317e+00 5.358827181559933983e+00 1.360249384098743519e+01 5.866018760732284676e+00
1.117353308499999898e+01 1.420141847202785801e+00 5.431659707590523745e+00 1.354858928543175800e+01 6.053566162649063109e+00
1.105006105000000005e+01 1.785002834460164056e+00 5.530433162660777668e+00 1.327104168661988304e+01 6.379839685523275072e+00
1.092928810499999948e+01 2.110470291514195740e+00 5.624640195775501006e+00 1.303129603001934100e+01 6.637128030813373769e+00
1.081112669500000045e+01 2.410960096613234960e+00 5.721975046197231407e+00 1.279787720426704745e+01 6.761662333402758129e+00
1.069549302000000068e+01 3.225980996211121887e+00 5.867339155075849355e+00 1.182747539237900547e+01 7.166176707421272774e+00
1.058230683000000028e+01 3.845855210910829936e+00 5.953568319493315997e+00 1.097008968819472052e+01 7.341629590605053046e+00
1.047149122999999982e+01 3.263592129808730036e+00 5.904625755451414548e+00 1.187519797026955004e+01 7.108174691837608528e+00
1.036297250999999875e+01 2.943289883958534858e+00 5.890283171011167163e+00 1.241224733115322643e+01 6.959764910514498304e+00
1.025667998999999853e+01 4.045080467099991139e+00 6.018543596597989875e+00 1.083900052707355499e+01 7.393050146618720397e+00
1.015254586500000045e+01 3.117222435664345426e+00 5.957286848596238471e+00 1.239672063518085565e+01 7.264121612902234126e+00
1.005050504999999994e+01 1.459043669479756167e+00 5.751156180807322826e+00 1.472034068807752050e+01 6.526957395975187204e+00
9.950495049499998856e+00 1.074059776416353751e+00 5.735854151697455272e+00 1.535529215350148746e+01 6.275873482695750738e+00
9.852455834000000578e+00 1.344739706531778989e+00 5.777368280702826375e+00 1.504744866030849515e+01 6.487211266827072720e+00
9.756329716499999805e+00 2.090591630401482437e+00 5.873381577571788803e+00 1.405025529333965828e+01 6.884237814996513549e+00
9.662061239499999843e+00 2.997367200528525899e+00 5.950822291146509180e+00 1.268983719689713929e+01 7.285226973121821104e+00
9.569597069500000330e+00 3.694495130004183725e+00 6.002101157690631794e+00 1.157853273995000798e+01 7.458738421555827003e+00
9.478885894000001144e+00 4.176495816781667259e+00 6.001805739281990348e+00 1.066009092261121616e+01 7.483268722841237341e+00
9.389878328500000038e+00 3.533266342378647007e+00 5.999425305033939004e+00 1.191046352625918914e+01 7.430970355742599232e+00
9.302526825999999360e+00 4.606118445998348854e+00 5.951151620457883595e+00 9.682933326091456294e+00 7.441121803168683435e+00
9.216785592999999110e+00 4.562005381510839896e+00 6.053757339310545937e+00 1.018013138976666809e+01 7.767741813125175199e+00
9.132610508999999155e+00 2.639260337078665586e+00 5.902403883877543223e+00 1.336424035750046713e+01 7.363283846751480510e+00
9.049959050000000005e+00 8.549296155829173571e-01 5.774326224098676796e+00 1.617020049447339147e+01 6.346030100160808374e+00
8.968790219000000619e+00 6.884539180944562187e-01 5.780213041522830331e+00 1.652188630321271390e+01 6.214370454324552817e+00
8.889064475499999674e+00 6.704773132615251541e-01 5.774298263673347087e+00 1.656956915127419805e+01 6.207251692256984477e+00
8.810743673499999318e+00 6.542700217638678373e-01 5.766353778807155273e+00 1.660782428437251212e+01 6.199623817974309503e+00
8.733790999500000041e+00 6.383590205612161839e-01 5.756613720512882892e+00 1.664007146790440217e+01 6.190142257675510074e+00
8.658170914500001203e+00 6.226635134345670508e-01 5.745110580870224304e+00 1.666651100348964931e+01 6.178776556405987996e+00
8.583849101000000203e+00 6.070673282107504898e-01 5.731884706416728648e+00 1.668743793629048611e+01 6.165473092480217687e+00
8.510792409000000447e+00 5.919570346513128856e-01 5.716954023657627282e+00 1.670216842655072753e+01 6.150576112857218725e+00
8.438968808000000266e+00 5.770556385214080652e-01 5.700376320791590956e+00 1.671134752109105648e+01 6.133900499705529086e+00
8.368347338999999607e+00 5.633881932942508275e-01 5.682235490671923017e+00 1.671338448393455778e+01 6.116140390304888541e+00
8.298898071500000029e+00 5.560259752858430771e-01 5.662868661994989949e+00 1.670019723551306257e+01 6.100168320077704820e+00
8.230592060500001139e+00 5.695677299902300872e-01 5.643202570134202567e+00 1.664797341550987042e+01 6.092182372995928574e+00
8.163401306000000801e+00 6.650067057027900796e-01 5.624441522761268963e+00 1.644656584856819137e+01 6.110000654157953015e+00
8.097298715000000868e+00 8.797413518386351106e-01 5.581134109376174379e+00 1.593496510304581371e+01 6.112450602535595579e+00
8.032258064499998795e+00 1.153834861845555615e+00 5.479412372845151147e+00 1.510812797521554529e+01 6.039013491903340913e+00
7.968253968500000006e+00 9.354699917450705060e-01 5.464124302476802697e+00 1.550437101076071222e+01 5.978304057535669180e+00
7.905261842499999858e+00 9.785279168858094234e-01 5.410761444693903854e+00 1.527865276325679034e+01 5.926933859221988676e+00
7.843257874000000740e+00 1.080479107368346403e+00 5.379427481134500866e+00 1.501847831997275406e+01 5.928342890142937804e+00
7.782218991999999780e+00 7.950359994347796500e-01 5.425497277274624608e+00 1.575622532493805394e+01 5.944943967950736763e+00
7.722122837999999767e+00 5.284240458055807776e-01 5.420040822131230840e+00 1.628003362995102421e+01 5.879795771642852387e+00
7.662947738999999814e+00 4.295793666011006873e-01 5.388121891139286745e+00 1.639618988228880525e+01 5.816833220212672906e+00
7.604672681000000267e+00 4.106045847476009203e-01 5.353685239448917166e+00 1.635388408333902888e+01 5.777679480448919769e+00
7.547277283999999753e+00 4.193984697284553476e-01 5.318152726977106504e+00 1.625591419971478757e+01 5.748212843916851611e+00
7.490741779500000419e+00 5.287409186877242151e-01 5.274211176251317745e+00 1.593953539908253880e+01 5.743461715242505150e+00
7.435046986999999774e+00 8.219790993024571613e-01 5.172727566885654937e+00 1.507141332323381810e+01 5.702793237045050923e+00
7.380174291499999484e+00 9.822365751062089867e-01 5.044128747198195484e+00 1.435911785951840258e+01 5.579801883979835786e+00
7.326105624500000246e+00 7.024702929216631864e-01 5.079514036673281829e+00 1.505307582072082795e+01 5.568529905507943134e+00
7.272823442500000013e+00 9.861444718473111326e-01 4.948883415334842439e+00 1.409855478195386880e+01 5.492923613610058986e+00
7.220310708000000410e+00 8.854435996384658614e-01 4.965838617855481196e+00 1.438884722771930669e+01 5.508976919253976590e+00
7.168550873500000087e+00 6.098018405344823867e-01 5.007639053668113682e+00 1.510232485486444531e+01 5.509859842943141572e+00
7.117527862499999358e+00 4.313473256399167899e-01 4.994112776973498313e+00 1.543560410313384956e+01 5.451040513973854473e+00
7.067226051500000494e+00 3.365779022722401592e-01 4.956433675152997154e+00 1.552435217247558974e+01 5.377593519602664962e+00
7.017630257000000427e+00 3.005526859443396481e-01 4.915128307347298886e+00 1.548835566766934591e+01 5.320557565064723882e+00
6.968725718499999999e+00 2.846921807397942428e-01 4.870951721886429553e+00 1.540400017475922390e+01 5.269982493350775066e+00
6.920498084000000105e+00 2.748095746683340557e-01 4.826804573645894436e+00 1.530811751431564005e+01 5.222523019692158819e+00
6.872933396000000528e+00 2.662188498300589456e-01 4.779694957193988181e+00 1.519932577790980588e+01 5.172648631912513117e+00
6.826018078000000600e+00 2.581571683662551298e-01 4.735054226443203618e+00 1.509738554454550830e+01 5.125609694901791080e+00
6.779738922499999987e+00 2.502734325359395329e-01 4.687752191794445800e+00 1.498554941978859212e+01 5.075702035380816213e+00
6.734083076499999265e+00 2.426483284086855818e-01 4.641633050130383964e+00 1.487675792096396776e+01 5.027061211725524004e+00
6.689038031499999981e+00 2.351657360251278028e-01 4.593406157462235129e+00 1.476008542104480092e+01 4.976116267628179379e+00
6.644591611500000106e+00 2.278729805569617017e-01 4.544524721977710513e+00 1.464027934932319930e+01 4.924444457976553835e+00
6.600731961999999342e+00 2.209282340360018970e-01 4.498264325637930661e+00 1.452802717436372681e+01 4.875622058674696113e+00
6.557447540000000075e+00 2.140290268919169958e-01 4.448314619391902980e+00 1.440274340670235098e+01 4.822761352939138213e+00
6.514727103000000241e+00 2.073695081770353665e-01 4.399917269002374454e+00 1.428177499442904974e+01 4.771565116771737003e+00
6.472559698499999570e+00 2.009058866187799219e-01 4.350663714887277322e+00 1.415683499595022177e+01 4.719431733202359425e+00
6.430934656499999846e+00 1.946106183473071960e-01 4.300980833764860733e+00 1.402956736201040044e+01 4.666809440286590949e+00
6.389841581000000659e+00 1.885465397875476512e-01 4.252545877313935740e+00 1.390554995544848715e+01 4.615527082522045355e+00
6.349270338000000180e+00 1.826583644382684113e-01 4.203748773374110570e+00 1.377933036928326516e+01 4.563835120443837212e+00
6.309211050000000043e+00 1.769856824237738824e-01 4.155577679913873723e+00 1.365418336676640010e+01 4.512813111302309110e+00
