# wl [um], spectra (phi=0), spectra (phi=90), spectra (phi=180), spectra (phi=270)
5.500000000000000000e+03 7.610929936344841366e-08 7.400143017255362138e-08 7.736685158349751472e-08 7.842167743331256053e-08
7.500000000000000000e+02 8.905848070630153996e-06 8.818619108471019785e-06 8.922783196793785879e-06 8.974470845412334176e-06
4.166666666500000247e+02 7.099252277680333332e-05 7.029023616038618846e-05 7.103126438736588697e-05 7.143703246421314885e-05
2.916666666500000247e+02 2.495241149072688585e-04 2.481570678383827411e-04 2.488623612060544095e-04 2.496157671767361072e-04
2.250000000000000000e+02 6.770975444484428037e-04 6.727294053730178709e-04 6.758592493180848489e-04 6.780704948989485547e-04
1.833333333500000037e+02 1.401336943703876100e-03 1.395197971067393310e-03 1.395343254876112464e-03 1.398990013298653324e-03
1.547619047999999964e+02 2.692679738555747715e-03 2.679779264953565353e-03 2.682998326695721063e-03 2.689580889132139017e-03
1.339285714499999926e+02 4.466190605407488121e-03 4.449654004987094874e-03 4.440678897967736613e-03 4.451321370964644690e-03
1.180555555500000082e+02 7.195707016403525211e-03 7.166727878004105524e-03 7.157912634672880005e-03 7.174742582014420611e-03
1.055555555500000082e+02 1.071588697983520168e-02 1.067605530419153161e-02 1.064975495663281549e-02 1.067510886471331223e-02
9.545454545499998744e+01 1.546814981559909916e-02 1.540806633365284992e-02 1.537906587951187558e-02 1.541660847937909723e-02
8.712121211999999559e+01 2.231036443967794602e-02 2.219734106484788291e-02 2.222789666908377149e-02 2.228141801552086659e-02
8.012820512499999381e+01 2.883529040424351667e-02 2.872453089022882280e-02 2.866259530402167147e-02 2.873207038532848978e-02
7.417582417500000247e+01 3.811617708290068046e-02 3.796869101569759486e-02 3.793770024695957560e-02 3.802236741182986324e-02
6.904761905000000866e+01 4.985201622373731933e-02 4.964122181153538677e-02 4.967763336610892672e-02 4.977891207199369727e-02
6.458333333499999185e+01 6.093597028430938062e-02 6.072144819894219336e-02 6.062059609261350596e-02 6.075226589531250443e-02
6.066176470499999596e+01 7.962528531707629975e-02 7.927009897157465124e-02 7.946659188122182083e-02 7.960057134168921356e-02
5.718954248500000404e+01 9.206581285637484291e-02 9.172976431800340669e-02 9.155907856705175485e-02 9.175721293448572957e-02
5.409356725499999641e+01 1.168335132292081108e-01 1.162686880746759410e-01 1.166843581353489701e-01 1.169029613130956324e-01
5.131578947500000254e+01 1.409740362206115816e-01 1.402594734634953211e-01 1.409626090443746593e-01 1.412101010544609125e-01
4.880952381000000173e+01 1.540209472908341537e-01 1.534371298044153176e-01 1.531688990618738921e-01 1.535098575701721035e-01
4.653679653500000057e+01 1.933764068851964446e-01 1.923620821700272321e-01 1.933967478568070497e-01 1.937500582538274341e-01
4.446640315999999871e+01 2.088685136153755340e-01 2.081014354537037703e-01 2.077869566983772953e-01 2.081826216880721392e-01
4.257246376999999882e+01 2.711702136304903199e-01 2.692674432447307309e-01 2.719647094165456580e-01 2.726233492662958890e-01
4.083333333499999895e+01 2.867911481876466162e-01 2.853620031864382844e-01 2.862968064490921116e-01 2.868545450040377864e-01
3.923076922999999994e+01 3.278027898443203192e-01 3.262416521199734687e-01 3.277068260331590377e-01 3.281892007485737728e-01
3.774928775000000059e+01 3.963839345414406634e-01 3.934865788000121989e-01 3.976525592319977709e-01 3.986568969209503543e-01
3.637566137499999996e+01 4.188637926198607864e-01 4.164442288855395580e-01 4.189229693156139023e-01 4.197856606411813352e-01
3.509852216500000566e+01 4.556149468257384427e-01 4.533891818577401311e-01 4.552709408728953244e-01 4.559594225963353176e-01
3.390804597500000739e+01 5.524903961213508685e-01 5.480842798502789659e-01 5.545457805318173561e-01 5.561352482702359712e-01
3.279569892499999639e+01 5.751534322523518261e-01 5.713970157866934407e-01 5.758121554333022196e-01 5.771372098241701609e-01
3.175403225999999890e+01 6.830786312419588890e-01 6.762604930095509337e-01 6.861276932274028573e-01 6.891612822938958383e-01
3.077651515000000160e+01 6.772227347122218299e-01 6.728715413348153040e-01 6.778348745473189441e-01 6.792650460605164087e-01
2.985739750500000156e+01 7.944702787525871335e-01 7.865439989049726188e-01 7.974181181657826745e-01 8.008358203516841023e-01
2.899159663999999736e+01 8.529585290858955338e-01 8.444995881196709631e-01 8.559060376956596494e-01 8.596603722372616607e-01
2.817460317500000144e+01 8.632811281470997855e-01 8.568524613212474828e-01 8.642419981665152573e-01 8.665467290287865998e-01
2.740240240500000013e+01 1.081718282652101903e+00 1.065271012367873915e+00 1.092175056868686767e+00 1.102318764907654680e+00
2.667140824999999893e+01 1.080750908561260326e+00 1.067727583989378726e+00 1.086203779302541195e+00 1.092946024981754416e+00
2.597840755500000398e+01 1.211229482789084599e+00 1.192487219806089849e+00 1.222572337242409768e+00 1.234115220464124363e+00
2.532051282000000114e+01 1.229307209669550316e+00 1.212789969571925752e+00 1.236927497005109178e+00 1.246206887731033497e+00
2.469512195000000077e+01 1.465724529659652831e+00 1.433069180853721925e+00 1.491788465023202503e+00 1.514227230673463653e+00
2.409988385500000163e+01 1.461019981228022679e+00 1.433213835228399624e+00 1.480556322725271157e+00 1.498614444828366254e+00
2.353266887999999923e+01 1.571708272366021841e+00 1.542094590762585371e+00 1.590956975808221374e+00 1.609501961937346737e+00
2.299154333999999977e+01 1.729654362386716659e+00 1.689189954109761249e+00 1.761253198020184429e+00 1.788545566707525403e+00
2.247474747500000092e+01 1.774977338732478094e+00 1.736178126857041537e+00 1.802955980768732536e+00 1.828244288996796030e+00
2.198067632500000101e+01 1.822475329475939265e+00 1.786692922861272903e+00 1.846273192841882294e+00 1.868970347173488866e+00
2.150786308500000032e+01 2.044990147730079144e+00 1.991509147842756677e+00 2.089636264155435796e+00 2.125495647406159261e+00
2.105496453499999987e+01 2.086623099593033714e+00 2.031688857764975431e+00 2.131605959118445526e+00 2.166679040502740072e+00
2.062074830000000247e+01 2.233574495784657721e+00 2.170139312243810181e+00 2.288035152534415584e+00 2.328891739209055789e+00
2.020408163500000143e+01 2.392103349316833771e+00 2.309540061130764599e+00 2.464898454504761194e+00 2.516582945961538531e+00
1.980392156999999997e+01 2.376777569776824972e+00 2.316132657619595303e+00 2.427147533954760128e+00 2.465986196233528549e+00
1.941930618499999994e+01 2.473469006558462802e+00 2.406651136763825694e+00 2.529551172287931138e+00 2.571546312343434781e+00
1.904934688000000165e+01 2.671810671315214769e+00 2.582125782378589918e+00 2.751656352646224324e+00 2.807984617333383781e+00
1.869322152499999845e+01 2.840260660974927021e+00 2.722224436198572128e+00 2.945265569214787771e+00 3.015096052032617546e+00
1.835016835000000057e+01 2.832255567348643144e+00 2.737402214635308528e+00 2.915666246325927524e+00 2.973709849272753392e+00
1.801948052000000189e+01 3.039762270963596080e+00 2.908856142694266289e+00 3.156467953953234762e+00 3.232106781984850130e+00
1.770050125499999893e+01 3.051214739428301126e+00 2.935878775771981974e+00 3.153109277927017118e+00 3.220473346048014385e+00
1.739261948000000046e+01 3.230693108934116431e+00 3.100877458794588204e+00 3.348182205274444989e+00 3.425659552663173457e+00
1.709526592499999964e+01 3.317328907711984076e+00 3.175097374452364729e+00 3.445357505241039675e+00 3.525540423287399694e+00
1.680790960499999898e+01 3.368442730613756986e+00 3.233319123972506315e+00 3.490071881552483379e+00 3.567668047966752631e+00
1.653005464499999988e+01 3.600880728436200773e+00 3.416322012659299912e+00 3.770635056556457254e+00 3.860587518785937533e+00
1.626123743999999860e+01 3.609956008842608366e+00 3.449300544043457872e+00 3.761461197272956358e+00 3.843518798769791189e+00
1.600102406499999930e+01 3.745748472772867377e+00 3.565951407245071980e+00 3.913583163857102143e+00 4.002400323269310611e+00
1.574900793500000162e+01 3.716863926737643542e+00 3.564634779244924889e+00 3.859332261085238969e+00 3.937522124520274502e+00
1.550480768999999981e+01 3.779924568519264394e+00 3.622060419903091244e+00 3.936470736087130717e+00 3.997585977729708695e+00
1.526806526500000061e+01 3.758406333971401114e+00 3.613060057462235797e+00 3.897439979329632820e+00 3.944999288993514153e+00
1.503844413999999929e+01 3.446766475298776555e+00 3.346480012891815292e+00 3.567960607902252779e+00 3.578080571825244860e+00
1.481562774000000005e+01 3.897197318690103440e+00 3.746500649594202592e+00 4.037270007190151944e+00 4.087432094332933197e+00
1.459931798500000077e+01 4.023749641202714500e+00 3.858874128008971560e+00 4.195730701731971379e+00 4.243988845454605752e+00
1.438923395499999991e+01 4.182784496685782116e+00 3.998986823627893372e+00 4.371724184914594247e+00 4.445496214004312385e+00
1.418511066499999984e+01 4.407037997442933452e+00 4.178834873466318101e+00 4.658331823869956700e+00 4.738213151571261328e+00
1.398669796500000118e+01 4.594528127624660563e+00 4.328965903508155577e+00 4.923749563854314282e+00 4.980565617135490619e+00
1.379375951499999964e+01 4.648132481186041609e+00 4.381439656853290288e+00 5.005627137740360055e+00 5.042949339558788324e+00
1.360607182500000079e+01 4.749088509232588962e+00 4.467767681825068671e+00 5.132626449024520809e+00 5.168591811050874618e+00
1.342342342000000066e+01 4.762737452918996084e+00 4.485117045950658188e+00 5.099709383549594577e+00 5.173197650284625304e+00
1.324561403500000090e+01 4.874380289567237234e+00 4.580900258497549338e+00 5.283742902356316939e+00 5.318504435884175763e+00
1.307245386499999995e+01 4.961279380224643099e+00 4.660553251704492084e+00 5.430400090513936462e+00 5.431693044258500969e+00
1.290376290500000067e+01 4.985068157084077356e+00 4.684107080141162172e+00 5.426535645200432079e+00 5.451552296534888598e+00
1.273937033500000027e+01 5.051295602297439125e+00 4.745238204290236794e+00 5.541077532218640300e+00 5.536468046132677401e+00
1.257911392499999970e+01 5.037369837319075394e+00 4.737993459103304161e+00 5.462768958285892928e+00 5.505730224488317504e+00
1.242283950499999889e+01 5.145531967429644027e+00 4.834266541240950232e+00 5.659169905159102676e+00 5.652227497072574103e+00
1.227040047999999928e+01 5.200396646100055698e+00 4.889298298689619848e+00 5.774800188880393925e+00 5.728330005099090627e+00
1.212165736000000038e+01 5.235668213372258961e+00 4.921760080330630061e+00 5.829249785368295633e+00 5.774758691270662325e+00
1.197647733499999845e+01 5.274796634440812149e+00 4.960082854386634210e+00 5.906669304664934117e+00 5.828761009031025786e+00
1.183473388999999898e+01 5.300251238040330826e+00 4.980830221484014331e+00 5.929732851295023366e+00 5.859806980183596359e+00
1.169630642999999992e+01 5.314802064194053877e+00 4.993525028272623345e+00 5.919893956413075031e+00 5.873898624601545215e+00
1.156107992500000137e+01 5.362197342814376100e+00 5.045204693626933690e+00 6.055636468405930728e+00 5.949658235442656817e+00
1.142894461499999892e+01 5.374250684107005682e+00 5.055471323163657438e+00 6.067115046182011362e+00 5.965464048975867684e+00
1.129979570999999972e+01 5.387941554641231257e+00 5.065065894579786843e+00 6.077613330021462978e+00 5.983598243335367606e+00
1.117353308499999898e+01 5.412096157746013603e+00 5.096418103966253277e+00 6.174435036529608567e+00 6.030343295738361142e+00
1.105006105000000005e+01 5.415537731437116697e+00 5.098971350239382083e+00 6.172210002425633668e+00 6.036156223905014606e+00
1.092928810499999948e+01 5.428117271740429572e+00 5.115318677557117333e+00 6.229548301167890045e+00 6.064607849913675963e+00
1.081112669500000045e+01 5.422004604920024562e+00 5.106932795698095440e+00 6.209057155217775126e+00 6.057835785240318849e+00
1.069549302000000068e+01 5.423324076117912895e+00 5.122407689271491371e+00 6.292268415556113048e+00 6.082168460234221641e+00
1.058230683000000028e+01 5.415594379089976762e+00 5.110030370866600613e+00 6.258359559896610413e+00 6.070584219127533210e+00
1.047149122999999982e+01 5.410398891530999954e+00 5.109119901510518424e+00 6.281388921666237302e+00 6.075943578465079042e+00
1.036297250999999875e+01 5.395008089310089794e+00 5.104046702957451664e+00 6.315886154517409423e+00 6.075531436206747848e+00
1.025667998999999853e+01 5.380148775555087859e+00 5.078035936482064194e+00 6.253321515929798124e+00 6.051352592951944054e+00
1.015254586500000045e+01 5.353187447947329147e+00 5.071872300575697601e+00 6.320639164387969799e+00 6.049642433332248714e+00
1.005050504999999994e+01 5.329948325706815204e+00 5.050930008861158171e+00 6.308298573909723039e+00 6.032144112917734446e+00
9.950495049499998856e+00 5.307030046338073959e+00 5.026273005871325417e+00 6.282959626045961699e+00 6.011866171408004611e+00
9.852455834000000578e+00 5.272979661984563471e+00 4.979917778461899758e+00 6.198890447865424314e+00 5.966458946016298448e+00
9.756329716499999805e+00 5.239825869054923757e+00 4.958138441554780229e+00 6.224275033765508169e+00 5.951623036539485767e+00
9.662061239499999843e+00 5.209061488586645972e+00 4.931930102999023013e+00 6.222557260253486433e+00 5.930730521628698959e+00
9.569597069500000330e+00 5.170416207039249201e+00 4.899535697930040179e+00 6.209936315701183318e+00 5.900653492790269183e+00
9.478885894000001144e+00 5.139927271376466322e+00 4.865299760334269585e+00 6.167542366590385683e+00 5.869225242820603761e+00
9.389878328500000038e+00 5.095327789244537442e+00 4.815028734454505965e+00 6.073883421634515223e+00 5.810603993487108987e+00
9.302526825999999360e+00 5.062446339211880364e+00 4.789875514388990396e+00 6.089088026583120872e+00 5.791312516587217019e+00
9.216785592999999110e+00 5.019884986272289851e+00 4.759949804416311103e+00 6.105595433418562479e+00 5.765672624108348465e+00
9.132610508999999155e+00 4.977470602580320147e+00 4.707391689306737348e+00 6.000240266139954315e+00 5.706009477456572831e+00
9.049959050000000005e+00 4.936395123192566459e+00 4.656234262966113313e+00 5.906197491211772288e+00 5.649493110523317263e+00
8.968790219000000619e+00 4.892284414658886860e+00 4.623235560008332357e+00 5.914933560584702654e+00 5.620728506348084075e+00
8.889064475499999674e+00 4.838200475189391447e+00 4.575498565156903119e+00 5.864122720500426489e+00 5.565815767417206850e+00
8.810743673499999318e+00 4.780377369447790237e+00 4.498163810122915329e+00 5.674094515202153133e+00 5.465951765345600677e+00
8.733790999500000041e+00 4.755265031948321841e+00 4.495467590441010408e+00 5.794104016323549544e+00 5.485964066962127461e+00
8.658170914500001203e+00 4.711610882785739030e+00 4.443507056168573222e+00 5.708359952754323174e+00 5.430961249581194750e+00
8.583849101000000203e+00 4.644411312075395593e+00 4.374435467316239112e+00 5.595169581097417577e+00 5.346876679389201747e+00
8.510792409000000447e+00 4.571582198252167828e+00 4.283009195584194906e+00 5.381442226618657898e+00 5.227289966503377627e+00
8.438968808000000266e+00 4.538251239656045044e+00 4.252202263715944675e+00 5.383869446575897832e+00 5.206189792453012721e+00
8.368347338999999607e+00 4.498324865748801749e+00 4.213385854938558772e+00 5.356096111313065400e+00 5.170440795075670337e+00
8.298898071500000029e+00 4.477369801036707564e+00 4.205219754237725205e+00 5.442923613574605746e+00 5.184278244240420719e+00
8.230592060500001139e+00 4.318764360918201817e+00 4.018486603830725201e+00 4.933411655724982303e+00 4.903006578909722357e+00
8.163401306000000801e+00 4.298122128841179723e+00 3.996520341664803855e+00 4.960197309301671353e+00 4.902103733601034463e+00
8.097298715000000868e+00 4.302761927632625216e+00 4.024700183926801067e+00 5.172471366015423122e+00 4.974051090037101552e+00
8.032258064499998795e+00 4.190620678737333904e+00 3.889614822072860356e+00 4.827540905931257065e+00 4.782257495867212604e+00
7.968253968500000006e+00 4.148792168894630983e+00 3.838763011801080705e+00 4.722974636887294686e+00 4.728312976337126550e+00
7.905261842499999858e+00 3.764772499134559691e+00 3.509078472842386720e+00 4.087835556662050784e+00 4.198600463646604553e+00
7.843257874000000740e+00 3.871043538328707179e+00 3.594151605191064025e+00 4.342487727631048067e+00 4.372332017704375851e+00
7.782218991999999780e+00 3.741872081369258307e+00 3.472828637507062055e+00 4.105598319175144617e+00 4.205200054740725335e+00
7.722122837999999767e+00 3.873175290221090528e+00 3.566391175782984924e+00 4.336516915776128300e+00 4.402022531565437546e+00
7.662947738999999814e+00 3.767676125214521665e+00 3.477900840491289003e+00 4.216122995567768150e+00 4.278755516868455011e+00
7.604672681000000267e+00 2.966268710425940647e+00 2.822623294795738591e+00 3.131757011726697293e+00 3.220014550274054699e+00
7.547277283999999753e+00 3.389673046819138502e+00 3.159619429937257529e+00 3.663785164164127917e+00 3.790581102177188022e+00
7.490741779500000419e+00 2.988168817189914339e+00 2.816219805372913942e+00 3.188051322198295789e+00 3.285926587650084940e+00
7.435046986999999774e+00 3.022792361373408898e+00 2.846178805780507304e+00 3.229597388225415866e+00 3.338520193309050921e+00
7.380174291499999484e+00 3.064051921597159556e+00 2.889658110763102083e+00 3.270852746452905357e+00 3.384306194622739294e+00
7.326105624500000246e+00 2.401663647874660690e+00 2.311426826037315863e+00 2.505730407334611165e+00 2.562428737850003024e+00
7.272823442500000013e+00 2.281617704110900480e+00 2.202583197713539942e+00 2.373354256965776177e+00 2.421778421734614550e+00
7.220310708000000410e+00 2.444504386564531284e+00 2.344424321455620408e+00 2.564012349683583825e+00 2.629493326334827241e+00
7.168550873500000087e+00 1.840829714418154683e+00 1.791493082871182585e+00 1.892887107347207554e+00 1.915437824778525089e+00
7.117527862499999358e+00 2.265487440594379454e+00 2.185597768854015577e+00 2.359837141639088198e+00 2.409806416158191134e+00
7.067226051500000494e+00 1.884942948023357934e+00 1.826261334801262182e+00 1.951166804555169554e+00 1.984352960121409604e+00
7.017630257000000427e+00 1.833284593800151407e+00 1.781022552144825077e+00 1.890041018170874665e+00 1.913874623435552591e+00
6.968725718499999999e+00 1.603556023147437504e+00 1.563063528578840344e+00 1.644272898564478558e+00 1.658384981315341511e+00
6.920498084000000105e+00 1.938556109873273758e+00 1.876611994534048700e+00 2.011081847423078717e+00 2.045570249793663642e+00
6.872933396000000528e+00 1.256744532469607156e+00 1.231282582119449298e+00 1.280054653786946606e+00 1.286459833464756342e+00
6.826018078000000600e+00 1.519376009155278595e+00 1.480613197495316946e+00 1.559217055666171969e+00 1.570368322198377742e+00
6.779738922499999987e+00 1.265466111165256535e+00 1.238034677634161529e+00 1.291476901429831514e+00 1.298612303268540602e+00
6.734083076499999265e+00 1.354587479674680184e+00 1.321872159056958207e+00 1.389139260968841105e+00 1.399224765343062948e+00
6.689038031499999981e+00 1.100484835040653309e+00 1.080343479025284825e+00 1.119860965258292262e+00 1.121417009602829751e+00
6.644591611500000106e+00 9.087305565163251719e-01 8.952822508447260130e-01 9.165427257297377173e-01 9.164271703801660784e-01
6.600731961999999342e+00 9.919910707860147836e-01 9.758286784883437592e-01 1.007904531441507601e+00 1.007849280342074660e+00
6.557447540000000075e+00 8.193422842738238288e-01 8.093564265661264967e-01 8.250092838270277618e-01 8.233575419090741754e-01
6.514727103000000241e+00 8.558369260446345717e-01 8.430733494463267252e-01 8.651064829391617028e-01 8.645340149340490221e-01
6.472559698499999570e+00 8.406267953673650650e-01 8.275364535559396328e-01 8.497658153721672214e-01 8.498176024611096002e-01
6.430934656499999846e+00 7.552023674695887978e-01 7.449569423237021315e-01 7.604038501738862310e-01 7.595356314980303836e-01
6.389841581000000659e+00 8.548151272707311676e-01 8.400651333093871465e-01 8.684423048190402783e-01 8.682000985808531190e-01
6.349270338000000180e+00 8.962663951932301476e-01 8.792722148847993413e-01 9.139164781540347615e-01 9.143532621204535360e-01
6.309211050000000043e+00 1.417102466724405430e+00 1.371047745175112631e+00 1.473257209711608340e+00 1.495472614093226182e+00
